#EXPORTTYPE:DATA ALL
#FILE:ExpDat_00090_CaC2O4_10_1000_Al2O3-lids_Air-30-10_TGA.imp
#FORMAT:NETZSCH5
#FTYPE:ASCII
#IDENTITY:ExpDat_00090_CaC2O4_10_1000_Al2
#DECIMAL:POINT
#SEPARATOR:SEMICOLON
#MTYPE:TG
#INSTRUMENT:IMPORTED TG
#PROJECT:
#DATE/TIME:26.09.2008 09:56
#CORR. FILE:
#TEMPCAL:---
#LABORATORY:
#OPERATOR:
#REMARK:
#SAMPLE:
#SAMPLE MASS /mg:19.604
#MATERIAL:
#REFERENCE:
#REFERENCE MASS /mg:
#TYPE OF CRUCIBLE:
#SAMPLE CRUCIBLE MASS /mg:0.000
#REFERENCE CRUCIBLE MASS /mg:
#PROTECTIVE GAS:
#FLOW RATE:
#PURGE GAS 1:
#FLOW RATE 1:
#PURGE GAS 2:
#FLOW RATE 2:
#M.RANGE /mg:0
#CORR. CODE:600
#RANGE:30oC/10.0(K/min)/1000oC
#SEGMENT:S1/1
#SEG. 1:30oC/10.0(K/min)/1000oC

##Temp./oC;Time/min;Mass/%;DTG/(%/min)
 30.22167; 0.10300;100.00000;-2.9217e-013
 30.72167; 1.13066;100.00396; 1.4272e-002
 31.22167; 1.39446;100.01084; 2.1910e-002
 31.72167; 1.58818;100.01376; 1.6862e-002
 32.22167; 1.74891;100.01806; 3.7994e-002
 32.72167; 1.89016;100.02455; 5.0491e-002
 33.22167; 2.01715;100.03039; 3.5278e-002
 33.72167; 2.13287;100.03267; 3.7984e-003
 34.22167; 2.24030;100.03188;-1.5156e-002
 34.72167; 2.34124;100.02995;-2.1643e-002
 35.22167; 2.43635;100.02777;-2.3378e-002
 35.72167; 2.52640;100.02584;-1.7016e-002
 36.22167; 2.61220;100.02505; 7.9617e-004
 36.72167; 2.69435;100.02597; 2.1015e-002
 37.22167; 2.77313;100.02815; 3.1446e-002
 37.72167; 2.84900;100.03057; 2.9848e-002
 38.22167; 2.92233;100.03249; 2.1930e-002
 38.72167; 2.99346;100.03379; 1.5850e-002
 39.22167; 3.06262;100.03483; 1.6377e-002
 39.72167; 3.13001;100.03611; 2.2449e-002
 40.22167; 3.19575;100.03785; 3.0805e-002
 40.72167; 3.25996;100.04009; 3.7980e-002
 41.22167; 3.32270;100.04259; 4.0319e-002
 41.72167; 3.38417;100.04503; 3.7866e-002
 42.22167; 3.44447;100.04716; 3.2039e-002
 42.72167; 3.50373;100.04887; 2.5855e-002
 43.22167; 3.56198;100.05021; 2.0910e-002
 43.72167; 3.61925;100.05131; 1.7472e-002
 44.22167; 3.67558;100.05221; 1.4982e-002
 44.72167; 3.73103;100.05298; 1.2554e-002
 45.22167; 3.78573;100.05358; 8.9162e-003
 45.72167; 3.83976;100.05394; 4.1055e-003
 46.22167; 3.89313;100.05402;-1.4978e-003
 46.72167; 3.94588;100.05378;-7.6181e-003
 47.22167; 3.99799;100.05323;-1.3521e-002
 47.72167; 4.04945;100.05239;-1.8939e-002
 48.22167; 4.10031;100.05130;-2.3470e-002
 48.72167; 4.15059;100.05002;-2.6978e-002
 49.22167; 4.20034;100.04861;-2.9318e-002
 49.72167; 4.24959;100.04713;-3.0298e-002
 50.22167; 4.29838;100.04566;-2.9185e-002
 50.72167; 4.34673;100.04431;-2.5815e-002
 51.22167; 4.39469;100.04320;-1.9463e-002
 51.72167; 4.44227;100.04247;-9.9626e-003
 52.22167; 4.48949;100.04227; 1.9941e-003
 52.72167; 4.53635;100.04267; 1.5207e-002
 53.22167; 4.58288;100.04368; 2.8210e-002
 53.72167; 4.62905;100.04526; 3.9085e-002
 54.22167; 4.67487;100.04725; 4.6424e-002
 54.72167; 4.72034;100.04948; 5.0037e-002
 55.22167; 4.76552;100.05176; 4.9795e-002
 55.72167; 4.81041;100.05394; 4.6202e-002
 56.22167; 4.85502;100.05588; 3.9849e-002
 56.72167; 4.89936;100.05748; 3.1350e-002
 57.22167; 4.94348;100.05865; 2.1165e-002
 57.72167; 4.98732;100.05933; 9.8085e-003
 58.22167; 5.03091;100.05951;-1.8164e-003
 58.72167; 5.07427;100.05918;-1.2836e-002
 59.22167; 5.11743;100.05841;-2.2135e-002
 59.72167; 5.16040;100.05729;-2.8616e-002
 60.22167; 5.20319;100.05597;-3.2076e-002
 60.72167; 5.24584;100.05457;-3.2566e-002
 61.22167; 5.28837;100.05320;-3.0740e-002
 61.72167; 5.33076;100.05196;-2.7066e-002
 62.22167; 5.37301;100.05092;-2.2352e-002
 62.72167; 5.41513;100.05008;-1.7399e-002
 63.22167; 5.45711;100.04946;-1.1857e-002
 63.72167; 5.49893;100.04909;-5.8113e-003
 64.22167; 5.54065;100.04897; 2.8059e-004
 64.72167; 5.58224;100.04911; 6.2750e-003
 65.22167; 5.62375;100.04949; 1.1888e-002
 65.72167; 5.66513;100.05009; 1.6684e-002
 66.22167; 5.70643;100.05086; 1.9966e-002
 66.72167; 5.74763;100.05173; 2.1676e-002
 67.22167; 5.78873;100.05264; 2.1794e-002
 67.72167; 5.82970;100.05352; 2.0387e-002
 68.22167; 5.87058;100.05430; 1.7335e-002
 68.72167; 5.91137;100.05493; 1.2716e-002
 69.22167; 5.95211;100.05533; 6.8769e-003
 69.72167; 5.99277;100.05548;-1.7072e-004
 70.22167; 6.03338;100.05532;-8.1680e-003
 70.72167; 6.07394;100.05482;-1.6730e-002
 71.22167; 6.11445;100.05396;-2.5692e-002
 71.72167; 6.15489;100.05274;-3.4158e-002
 72.22167; 6.19525;100.05120;-4.1276e-002
 72.72167; 6.23555;100.04942;-4.6239e-002
 73.22167; 6.27578;100.04749;-4.8149e-002
 73.72167; 6.31596;100.04556;-4.6847e-002
 74.22167; 6.35608;100.04374;-4.2135e-002
 74.72167; 6.39615;100.04219;-3.4073e-002
 75.22167; 6.43617;100.04102;-2.3930e-002
 75.72167; 6.47614;100.04028;-1.3080e-002
 76.22167; 6.51606;100.03997;-2.5293e-003
 76.72167; 6.55590;100.04007; 6.7306e-003
 77.22167; 6.59570;100.04050; 1.4059e-002
 77.72167; 6.63546;100.04118; 1.8979e-002
 78.22167; 6.67518;100.04201; 2.2401e-002
 78.72167; 6.71487;100.04295; 2.4812e-002
 79.22167; 6.75455;100.04397; 2.6270e-002
 79.72167; 6.79423;100.04504; 2.7362e-002
 80.22167; 6.83388;100.04614; 2.8287e-002
 80.72167; 6.87350;100.04728; 2.9151e-002
 81.22167; 6.91310;100.04845; 2.9311e-002
 81.72167; 6.95267;100.04960; 2.8632e-002
 82.22167; 6.99219;100.05071; 2.6906e-002
 82.72167; 7.03165;100.05172; 2.4197e-002
 83.22167; 7.07110;100.05262; 2.0721e-002
 83.72167; 7.11053;100.05336; 1.6927e-002
 84.22167; 7.14994;100.05395; 1.3276e-002
 84.72167; 7.18931;100.05441; 1.0134e-002
 85.22167; 7.22867;100.05475; 7.5248e-003
 85.72167; 7.26804;100.05500; 5.3759e-003
 86.22167; 7.30737;100.05518; 3.5636e-003
 86.72167; 7.34668;100.05528; 1.2162e-003
 87.22167; 7.38595;100.05527;-2.2019e-003
 87.72167; 7.42524;100.05510;-6.7988e-003
 88.22167; 7.46452;100.05473;-1.2442e-002
 88.72167; 7.50378;100.05412;-1.8811e-002
 89.22167; 7.54305;100.05325;-2.5389e-002
 89.72167; 7.58233;100.05213;-3.1280e-002
 90.22167; 7.62159;100.05080;-3.5691e-002
 90.72167; 7.66083;100.04933;-3.8622e-002
 91.22167; 7.70006;100.04778;-3.9884e-002
 91.72167; 7.73928;100.04621;-3.9565e-002
 92.22167; 7.77849;100.04467;-3.8441e-002
 92.72167; 7.81769;100.04319;-3.7186e-002
 93.22167; 7.85693;100.04176;-3.6074e-002
 93.72167; 7.89619;100.04036;-3.5456e-002
 94.22167; 7.93548;100.03897;-3.5452e-002
 94.72167; 7.97480;100.03757;-3.5919e-002
 95.22167; 8.01417;100.03614;-3.6781e-002
 95.72167; 8.05357;100.03467;-3.7809e-002
 96.22167; 8.09297;100.03316;-3.8847e-002
 96.72167; 8.13239;100.03161;-3.9790e-002
 97.22167; 8.17186;100.03002;-4.0587e-002
 97.72167; 8.21133;100.02841;-4.1205e-002
 98.22167; 8.25082;100.02677;-4.1700e-002
 98.72167; 8.29035;100.02511;-4.2236e-002
 99.22167; 8.32991;100.02343;-4.2634e-002
 99.72167; 8.36949;100.02174;-4.2736e-002
100.22167; 8.40907;100.02005;-4.2577e-002
100.72167; 8.44868;100.01837;-4.2159e-002
101.22167; 8.48832;100.01671;-4.1499e-002
101.72167; 8.52801;100.01508;-4.0595e-002
102.22167; 8.56777;100.01348;-3.9619e-002
102.72167; 8.60761;100.01192;-3.8667e-002
103.22167; 8.64751;100.01040;-3.7638e-002
103.72167; 8.68749;100.00892;-3.6443e-002
104.22167; 8.72754;100.00749;-3.4906e-002
104.72167; 8.76763;100.00612;-3.2768e-002
105.22167; 8.80774;100.00486;-2.9905e-002
105.72167; 8.84789;100.00372;-2.6424e-002
106.22167; 8.88808;100.00274;-2.2486e-002
106.72167; 8.92829;100.00192;-1.8445e-002
107.22167; 8.96854;100.00125;-1.4633e-002
107.72167; 9.00884;100.00074;-1.1507e-002
108.22167; 9.04919;100.00032;-9.5487e-003
108.72167; 9.08959; 99.99996;-9.0116e-003
109.22167; 9.13007; 99.99959;-9.8471e-003
109.72167; 9.17062; 99.99916;-1.1926e-002
110.22167; 9.21123; 99.99862;-1.4930e-002
110.72167; 9.25191; 99.99794;-1.8345e-002
111.22167; 9.29262; 99.99713;-2.1514e-002
111.72167; 9.33339; 99.99619;-2.3984e-002
112.22167; 9.37418; 99.99517;-2.5181e-002
112.72167; 9.41499; 99.99414;-2.4806e-002
113.22167; 9.45582; 99.99316;-2.2926e-002
113.72167; 9.49670; 99.99227;-1.9873e-002
114.22167; 9.53763; 99.99153;-1.6157e-002
114.72167; 9.57863; 99.99095;-1.2483e-002
115.22167; 9.61971; 99.99050;-9.5518e-003
115.72167; 9.66087; 99.99016;-7.4838e-003
116.22167; 9.70211; 99.98988;-6.7224e-003
116.72167; 9.74340; 99.98960;-7.5563e-003
117.22167; 9.78475; 99.98925;-1.0162e-002
117.72167; 9.82615; 99.98875;-1.4597e-002
118.22167; 9.86759; 99.98803;-2.0682e-002
118.72167; 9.90907; 99.98703;-2.8153e-002
119.22167; 9.95053; 99.98570;-3.6283e-002
119.72167; 9.99200; 99.98403;-4.3920e-002
120.22167;10.03347; 99.98206;-5.0232e-002
120.72167;10.07495; 99.97987;-5.4461e-002
121.22167;10.11646; 99.97755;-5.6287e-002
121.72167;10.15803; 99.97520;-5.6113e-002
122.22167;10.19967; 99.97288;-5.4820e-002
122.72167;10.24136; 99.97063;-5.3471e-002
123.22167;10.28309; 99.96842;-5.2728e-002
123.72167;10.32484; 99.96622;-5.3043e-002
124.22167;10.36663; 99.96399;-5.4369e-002
124.72167;10.40844; 99.96167;-5.6385e-002
125.22167;10.45030; 99.95927;-5.8359e-002
125.72167;10.49222; 99.95679;-5.9834e-002
126.22167;10.53421; 99.95425;-6.0741e-002
126.72167;10.57623; 99.95169;-6.0880e-002
127.22167;10.61830; 99.94913;-6.0780e-002
127.72167;10.66039; 99.94657;-6.1175e-002
128.22167;10.70249; 99.94398;-6.1913e-002
128.72167;10.74459; 99.94135;-6.3406e-002
129.22167;10.78675; 99.93864;-6.5992e-002
129.72167;10.82898; 99.93578;-6.9851e-002
130.22167;10.87126; 99.93273;-7.4663e-002
130.72167;10.91364; 99.92945;-8.0156e-002
131.22167;10.95609; 99.92593;-8.6076e-002
131.72167;10.99858; 99.92214;-9.1531e-002
132.22167;11.04111; 99.91815;-9.5989e-002
132.72167;11.08367; 99.91398;-9.8970e-002
133.22167;11.12623; 99.90973;    -0.10013
133.72167;11.16881; 99.90546;-9.9979e-002
134.22167;11.21142; 99.90122;-9.9079e-002
134.72167;11.25408; 99.89701;-9.8521e-002
135.22167;11.29679; 99.89280;-9.9354e-002
135.72167;11.33955; 99.88852;    -0.10179
136.22167;11.38234; 99.88408;    -0.10578
136.72167;11.42516; 99.87945;    -0.11099
137.22167;11.46800; 99.87457;    -0.11682
137.72167;11.51086; 99.86944;    -0.12224
138.22167;11.55377; 99.86409;    -0.12698
138.72167;11.59678; 99.85854;    -0.13097
139.22167;11.63984; 99.85283;    -0.13387
139.72167;11.68298; 99.84700;    -0.13583
140.22167;11.72619; 99.84110;    -0.13655
140.72167;11.76946; 99.83520;    -0.13568
141.22167;11.81274; 99.82937;    -0.13315
141.72167;11.85607; 99.82367;    -0.12964
142.22167;11.89944; 99.81814;    -0.12535
142.72167;11.94285; 99.81279;    -0.12105
143.22167;11.98629; 99.80762;    -0.11805
143.72167;12.02977; 99.80252;    -0.11725
144.22167;12.07328; 99.79739;    -0.12022
144.72167;12.11684; 99.79203;    -0.12790
145.22167;12.16043; 99.78622;    -0.14057
145.72167;12.20408; 99.77974;    -0.15802
146.22167;12.24781; 99.77240;    -0.17856
146.72167;12.29159; 99.76411;    -0.19966
147.22167;12.33541; 99.75492;    -0.21838
147.72167;12.37928; 99.74499;    -0.23211
148.22167;12.42319; 99.73458;    -0.23922
148.72167;12.46712; 99.72401;    -0.24018
149.22167;12.51108; 99.71349;    -0.23705
149.72167;12.55511; 99.70316;    -0.23237
150.22167;12.59922; 99.69301;    -0.22876
150.72167;12.64338; 99.68295;    -0.22827
151.22167;12.68764; 99.67280;    -0.23146
151.72167;12.73199; 99.66242;    -0.23781
152.22167;12.77641; 99.65168;    -0.24627
152.72167;12.82090; 99.64052;    -0.25564
153.22167;12.86546; 99.62892;    -0.26513
153.72167;12.91009; 99.61687;    -0.27471
154.22167;12.95479; 99.60437;    -0.28419
154.72167;12.99955; 99.59144;    -0.29412
155.22167;13.04437; 99.57802;    -0.30484
155.72167;13.08924; 99.56410;    -0.31624
156.22167;13.13414; 99.54963;    -0.32818
156.72167;13.17909; 99.53461;    -0.34021
157.22167;13.22408; 99.51904;    -0.35169
157.72167;13.26913; 99.50294;    -0.36233
158.22167;13.31426; 99.48637;    -0.37195
158.72167;13.35945; 99.46935;    -0.38076
159.22167;13.40469; 99.45194;    -0.38915
159.72167;13.44999; 99.43412;    -0.39756
160.22167;13.49536; 99.41589;    -0.40618
160.72167;13.54078; 99.39724;    -0.41520
161.22167;13.58629; 99.37813;    -0.42478
161.72167;13.63189; 99.35853;    -0.43489
162.22167;13.67755; 99.33844;    -0.44558
162.72167;13.72325; 99.31782;    -0.45714
163.22167;13.76895; 99.29665;    -0.46985
163.72167;13.81464; 99.27487;    -0.48412
164.22167;13.86034; 99.25239;    -0.50034
164.72167;13.90605; 99.22912;    -0.51891
165.22167;13.95181; 99.20491;    -0.54020
165.72167;13.99765; 99.17962;    -0.56404
166.22167;14.04358; 99.15313;    -0.59031
166.72167;14.08957; 99.12534;    -0.61885
167.22167;14.13565; 99.09614;    -0.64906
167.72167;14.18176; 99.06550;    -0.68052
168.22167;14.22791; 99.03335;    -0.71232
168.72167;14.27411; 98.99971;    -0.74354
169.22167;14.32036; 98.96462;    -0.77300
169.72167;14.36662; 98.92823;    -0.79898
170.22167;14.41295; 98.89067;    -0.82009
170.72167;14.45928; 98.85227;    -0.83591
171.22167;14.50561; 98.81325;    -0.84680
171.72167;14.55196; 98.77381;    -0.85428
172.22167;14.59836; 98.73403;    -0.86037
172.72167;14.64476; 98.69396;    -0.86733
173.22167;14.69124; 98.65345;    -0.87670
173.72167;14.73778; 98.61238;    -0.88965
174.22167;14.78434; 98.57061;    -0.90612
174.72167;14.83091; 98.52798;    -0.92586
175.22167;14.87750; 98.48434;    -0.94850
175.72167;14.92405; 98.43962;    -0.97351
176.22167;14.97058; 98.39371;    -1.00024
176.72167;15.01714; 98.34650;    -1.02778
177.22167;15.06372; 98.29798;    -1.05527
177.72167;15.11033; 98.24816;    -1.08179
178.22167;15.15700; 98.19708;    -1.10638
178.72167;15.20371; 98.14486;    -1.12901
179.22167;15.25043; 98.09161;    -1.14996
179.72167;15.29715; 98.03742;    -1.16992
180.22167;15.34386; 97.98231;    -1.19015
180.72167;15.39057; 97.92622;    -1.21200
181.22167;15.43731; 97.86903;    -1.23682
181.72167;15.48410; 97.81052;    -1.26551
182.22167;15.53096; 97.75047;    -1.29911
182.72167;15.57789; 97.68862;    -1.33946
183.22167;15.62486; 97.62464;    -1.38738
183.72167;15.67188; 97.55816;    -1.44218
184.22167;15.71894; 97.48894;    -1.50062
184.72167;15.76602; 97.41690;    -1.55804
185.22167;15.81311; 97.34227;    -1.60845
185.72167;15.86021; 97.26549;    -1.64772
186.22167;15.90728; 97.18720;    -1.67466
186.72167;15.95432; 97.10796;    -1.69153
187.22167;16.00136; 97.02808;    -1.70342
187.72167;16.04844; 96.94762;    -1.71630
188.22167;16.09557; 96.86636;    -1.73439
188.72167;16.14277; 96.78398;    -1.75827
189.22167;16.19004; 96.70022;    -1.78669
189.72167;16.23736; 96.61494;    -1.81790
190.22167;16.28471; 96.52811;    -1.85035
190.72167;16.33207; 96.43969;    -1.88406
191.22167;16.37946; 96.34959;    -1.91986
191.72167;16.42685; 96.25772;    -1.95843
192.22167;16.47426; 96.16390;    -2.00002
192.72167;16.52173; 96.06793;    -2.04274
193.22167;16.56923; 95.96990;    -2.08349
193.72167;16.61678; 95.86992;    -2.12032
194.22167;16.66438; 95.76820;    -2.15285
194.72167;16.71201; 95.66494;    -2.18207
195.22167;16.75967; 95.56028;    -2.21008
195.72167;16.80740; 95.45411;    -2.23978
196.22167;16.85514; 95.34640;    -2.27333
196.72167;16.90296; 95.23682;    -2.31241
197.22167;16.95083; 95.12510;    -2.35712
197.72167;16.99870; 95.01112;    -2.40573
198.22167;17.04657; 94.89474;    -2.45644
198.72167;17.09449; 94.77582;    -2.50795
199.22167;17.14239; 94.65445;    -2.55892
199.72167;17.19029; 94.53067;    -2.60801
200.22167;17.23828; 94.40438;    -2.65540
200.72167;17.28630; 94.27576;    -2.70050
201.22167;17.33437; 94.14490;    -2.74282
201.72167;17.38248; 94.01197;    -2.78262
202.22167;17.43061; 93.87712;    -2.81990
202.72167;17.47871; 93.74061;    -2.85549
203.22167;17.52680; 93.60244;    -2.89117
203.72167;17.57490; 93.46251;    -2.92859
204.22167;17.62300; 93.32071;    -2.96867
204.72167;17.67112; 93.17682;    -3.01151
205.22167;17.71929; 93.03070;    -3.05586
205.72167;17.76750; 92.88230;    -3.09980
206.22167;17.81570; 92.73188;    -3.14118
206.72167;17.86390; 92.57955;    -3.17832
207.22167;17.91209; 92.42555;    -3.21099
207.72167;17.96026; 92.27014;    -3.24038
208.22167;18.00843; 92.11339;    -3.26818
208.72167;18.05665; 91.95511;    -3.29675
209.22167;18.10493; 91.79525;    -3.32741
209.72167;18.15322; 91.63378;    -3.35978
210.22167;18.20154; 91.47065;    -3.39184
210.72167;18.24989; 91.30591;    -3.42084
211.22167;18.29820; 91.14004;    -3.44399
211.72167;18.34650; 90.97327;    -3.45910
212.22167;18.39480; 90.80595;    -3.46622
212.72167;18.44308; 90.63854;    -3.46595
213.22167;18.49134; 90.47140;    -3.45920
213.72167;18.53959; 90.30473;    -3.44697
214.22167;18.58780; 90.13894;    -3.42939
214.72167;18.63599; 89.97418;    -3.40619
215.22167;18.68417; 89.81073;    -3.37668
215.72167;18.73231; 89.64898;    -3.33951
216.22167;18.78042; 89.48939;    -3.29290
216.72167;18.82846; 89.33247;    -3.23568
217.22167;18.87639; 89.17893;    -3.16586
217.72167;18.92423; 89.02937;    -3.08061
218.22167;18.97199; 88.88453;    -2.97718
218.72167;19.01965; 88.74543;    -2.85253
219.22167;19.06721; 88.61311;    -2.70328
219.72167;19.11465; 88.48881;    -2.52743
220.22167;19.16192; 88.37391;    -2.32429
220.72167;19.20896; 88.26972;    -2.09704
221.22167;19.25579; 88.17714;    -1.85202
221.72167;19.30237; 88.09673;    -1.59871
222.22167;19.34870; 88.02852;    -1.34818
222.72167;19.39480; 87.97198;    -1.11149
223.22167;19.44072; 87.92606;    -0.89748
223.72167;19.48645; 87.88951;    -0.71214
224.22167;19.53198; 87.86085;    -0.55805
224.72167;19.57735; 87.83858;    -0.43440
225.22167;19.62260; 87.82130;    -0.33859
225.72167;19.66773; 87.80782;    -0.26681
226.22167;19.71282; 87.79711;    -0.21496
226.72167;19.75792; 87.78834;    -0.17886
227.22167;19.80306; 87.78090;    -0.15443
227.72167;19.84825; 87.77434;    -0.13827
228.22167;19.89349; 87.76837;    -0.12714
228.72167;19.93877; 87.76282;    -0.11842
229.22167;19.98408; 87.75764;    -0.10998
229.72167;20.02946; 87.75285;    -0.10075
230.22167;20.07492; 87.74850;-9.0519e-002
230.72167;20.12049; 87.74462;-7.9681e-002
231.22167;20.16620; 87.74122;-6.9113e-002
231.72167;20.21208; 87.73829;-5.9400e-002
232.22167;20.25811; 87.73576;-5.0876e-002
232.72167;20.30429; 87.73359;-4.3605e-002
233.22167;20.35061; 87.73172;-3.7434e-002
233.72167;20.39707; 87.73011;-3.2456e-002
234.22167;20.44363; 87.72869;-2.8796e-002
234.72167;20.49029; 87.72741;-2.6576e-002
235.22167;20.53705; 87.72620;-2.5975e-002
235.72167;20.58387; 87.72497;-2.6376e-002
236.22167;20.63074; 87.72372;-2.7064e-002
236.72167;20.67773; 87.72244;-2.7127e-002
237.22167;20.72481; 87.72118;-2.5861e-002
237.72167;20.77198; 87.72001;-2.3277e-002
238.22167;20.81929; 87.71899;-1.9360e-002
238.72167;20.86675; 87.71818;-1.5223e-002
239.22167;20.91431; 87.71754;-1.1580e-002
239.72167;20.96201; 87.71707;-8.8668e-003
240.22167;21.00985; 87.71669;-7.2135e-003
240.72167;21.05779; 87.71637;-6.3360e-003
241.22167;21.10577; 87.71608;-5.6950e-003
241.72167;21.15377; 87.71582;-4.7333e-003
242.22167;21.20179; 87.71563;-3.0686e-003
242.72167;21.24980; 87.71553;-9.5828e-004
243.22167;21.29785; 87.71554; 1.2912e-003
243.72167;21.34603; 87.71565; 2.9820e-003
244.22167;21.39436; 87.71582; 3.7046e-003
244.72167;21.44284; 87.71600; 3.1413e-003
245.22167;21.49146; 87.71612; 1.1692e-003
245.72167;21.54017; 87.71610;-2.1107e-003
246.22167;21.58890; 87.71590;-6.4701e-003
246.72167;21.63768; 87.71547;-1.1459e-002
247.22167;21.68649; 87.71479;-1.6429e-002
247.72167;21.73534; 87.71387;-2.0715e-002
248.22167;21.78426; 87.71277;-2.3341e-002
248.72167;21.83324; 87.71160;-2.3811e-002
249.22167;21.88224; 87.71046;-2.1925e-002
249.72167;21.93127; 87.70946;-1.8456e-002
250.22167;21.98032; 87.70865;-1.4790e-002
250.72167;22.02940; 87.70800;-1.2403e-002
251.22167;22.07854; 87.70741;-1.2373e-002
251.72167;22.12773; 87.70676;-1.5028e-002
252.22167;22.17699; 87.70591;-1.9844e-002
252.72167;22.22630; 87.70480;-2.5314e-002
253.22167;22.27564; 87.70342;-3.0087e-002
253.72167;22.32500; 87.70185;-3.3134e-002
254.22167;22.37439; 87.70017;-3.4442e-002
254.72167;22.42380; 87.69845;-3.4444e-002
255.22167;22.47324; 87.69677;-3.3791e-002
255.72167;22.52270; 87.69511;-3.2958e-002
256.22167;22.57214; 87.69351;-3.1896e-002
256.72167;22.62158; 87.69197;-3.0197e-002
257.22167;22.67099; 87.69053;-2.7365e-002
257.72167;22.72040; 87.68927;-2.3220e-002
258.22167;22.76984; 87.68824;-1.8384e-002
258.72167;22.81932; 87.68746;-1.3325e-002
259.22167;22.86879; 87.68692;-8.8628e-003
259.72167;22.91830; 87.68657;-5.5119e-003
260.22167;22.96784; 87.68636;-3.4764e-003
260.72167;23.01739; 87.68622;-2.5810e-003
261.22167;23.06698; 87.68609;-2.8753e-003
261.72167;23.11661; 87.68592;-4.3367e-003
262.22167;23.16625; 87.68565;-7.0249e-003
262.72167;23.21592; 87.68521;-1.1129e-002
263.22167;23.26557; 87.68454;-1.6146e-002
263.72167;23.31518; 87.68361;-2.1421e-002
264.22167;23.36479; 87.68242;-2.6312e-002
264.72167;23.41437; 87.68101;-3.0207e-002
265.22167;23.46392; 87.67943;-3.2825e-002
265.72167;23.51353; 87.67776;-3.4240e-002
266.22167;23.56316; 87.67604;-3.4688e-002
266.72167;23.61280; 87.67433;-3.4327e-002
267.22167;23.66247; 87.67264;-3.3276e-002
267.72167;23.71213; 87.67103;-3.1239e-002
268.22167;23.76177; 87.66955;-2.8353e-002
268.72167;23.81141; 87.66822;-2.5158e-002
269.22167;23.86103; 87.66704;-2.2485e-002
269.72167;23.91064; 87.66598;-2.1069e-002
270.22167;23.96028; 87.66494;-2.1324e-002
270.72167;24.00997; 87.66384;-2.3180e-002
271.22167;24.05969; 87.66263;-2.5481e-002
271.72167;24.10946; 87.66132;-2.7019e-002
272.22167;24.15924; 87.65995;-2.7267e-002
272.72167;24.20904; 87.65862;-2.5863e-002
273.22167;24.25883; 87.65738;-2.3295e-002
273.72167;24.30864; 87.65630;-1.9974e-002
274.22167;24.35844; 87.65540;-1.6210e-002
274.72167;24.40823; 87.65469;-1.2126e-002
275.22167;24.45800; 87.65419;-7.7448e-003
275.72167;24.50776; 87.65392;-3.4278e-003
276.22167;24.55749; 87.65385; 3.2123e-004
276.72167;24.60718; 87.65394; 2.8191e-003
277.22167;24.65687; 87.65411; 3.3369e-003
277.72167;24.70654; 87.65425; 1.3583e-003
278.22167;24.75619; 87.65423;-2.7665e-003
278.72167;24.80586; 87.65396;-8.3831e-003
279.22167;24.85557; 87.65339;-1.4668e-002
279.72167;24.90526; 87.65251;-2.0508e-002
280.22167;24.95495; 87.65136;-2.4831e-002
280.72167;25.00467; 87.65006;-2.6931e-002
281.22167;25.05441; 87.64870;-2.7065e-002
281.72167;25.10421; 87.64738;-2.5456e-002
282.22167;25.15407; 87.64618;-2.2328e-002
282.72167;25.20397; 87.64516;-1.7828e-002
283.22167;25.25388; 87.64441;-1.1597e-002
283.72167;25.30376; 87.64402;-3.2707e-003
284.22167;25.35364; 87.64410; 6.9327e-003
284.72167;25.40348; 87.64472; 1.7889e-002
285.22167;25.45333; 87.64588; 2.7860e-002
285.72167;25.50319; 87.64747; 3.4826e-002
286.22167;25.55303; 87.64931; 3.7653e-002
286.72167;25.60286; 87.65120; 3.6851e-002
287.22167;25.65269; 87.65297; 3.3960e-002
287.72167;25.70254; 87.65458; 3.0812e-002
288.22167;25.75240; 87.65605; 2.8707e-002
288.72167;25.80230; 87.65745; 2.7733e-002
289.22167;25.85219; 87.65883; 2.7322e-002
289.72167;25.90205; 87.66017; 2.6261e-002
290.22167;25.95188; 87.66143; 2.3374e-002
290.72167;26.00170; 87.66248; 1.8474e-002
291.22167;26.05150; 87.66325; 1.2201e-002
291.72167;26.10132; 87.66370; 5.7652e-003
292.22167;26.15119; 87.66384; 4.2690e-004
292.72167;26.20110; 87.66376;-2.6517e-003
293.22167;26.25100; 87.66360;-2.9825e-003
293.72167;26.30090; 87.66348;-9.9631e-004
294.22167;26.35077; 87.66351; 1.9963e-003
294.72167;26.40057; 87.66368; 4.6637e-003
295.22167;26.45037; 87.66396; 5.7204e-003
295.72167;26.50020; 87.66423; 4.5679e-003
296.22167;26.55005; 87.66439; 1.2693e-003
296.72167;26.59995; 87.66434;-3.6767e-003
297.22167;26.64987; 87.66402;-9.0399e-003
297.72167;26.69977; 87.66345;-1.3396e-002
298.22167;26.74962; 87.66271;-1.5376e-002
298.72167;26.79943; 87.66195;-1.4059e-002
299.22167;26.84923; 87.66133;-9.8375e-003
299.72167;26.89905; 87.66099;-3.3798e-003

